time,x,y,velocity_x,velocity_y,acceleration_x,acceleration_y,theta,firing
0,0,0,1.70635,-1.28208,0,0,0,0
0.1,0.170635,-0.128208,1.70635,-1.28208,-0,0,-25.5138,0
0.2,0.34127,-0.256417,1.70635,-1.28208,-0,0,-25.5177,0
0.3,0.511904,-0.384625,1.70635,-1.28208,0,0,-2.3397,0
0.4,0.683935,-0.511401,1.73426,-1.25343,0.279074,0.286561,-2.34296,1
0.5,0.857267,-0.634746,1.73239,-1.21347,-0.0186282,0.399566,-1.52421,1
0.6,1.02873,-0.755171,1.6969,-1.19503,-0.354958,0.184405,-0.479135,1
0.7,1.19643,-0.874858,1.65707,-1.1987,-0.39831,-0.036735,0.0919671,1
0.8,1.36015,-0.994916,1.61724,-1.20246,-0.398237,-0.0375087,0.0939098,1
0.9,1.51995,-1.11461,1.57877,-1.1915,-0.384692,0.109599,-0.277547,1
1,1.6764,-1.23236,1.55028,-1.16342,-0.284908,0.280763,-0.778071,1
1.1,1.83074,-1.34682,1.53648,-1.12588,-0.138073,0.375414,-1.21836,1
1.2,1.98422,-1.45742,1.53329,-1.086,-0.0318402,0.398731,-1.49111,1
1.3,2.13755,-1.56402,1.53328,-1.046,-0.000149199,0.4,-1.57042,1
1.4,2.29071,-1.66663,1.5298,-1.00616,-0.0347927,0.398484,-1.4837,1
1.5,2.44311,-1.76533,1.51834,-0.967832,-0.114574,0.38324,-1.28029,1
1.6,2.59389,-1.86041,1.49719,-0.93388,-0.211483,0.339522,-1.01372,1
1.7,2.74212,-1.95246,1.46749,-0.907088,-0.29702,0.267916,-0.733925,1
1.8,2.8871,-2.04224,1.43206,-0.888528,-0.35433,0.185607,-0.482525,1
1.9,3.02839,-2.13052,1.39372,-0.877119,-0.383384,0.11409,-0.289242,1
2,3.16579,-2.2179,1.3543,-0.870332,-0.394201,0.0678629,-0.170482,1
2.1,3.29924,-2.30467,1.31464,-0.865128,-0.396599,0.0520477,-0.130489,1
2.2,3.42873,-2.39085,1.27517,-0.858594,-0.394628,0.0653351,-0.164073,1
2.3,3.55431,-2.4762,1.23651,-0.848328,-0.386601,0.102663,-0.259563,1
2.4,3.67612,-2.56025,1.19969,-0.832704,-0.368227,0.156234,-0.401267,1
2.5,3.79441,-2.64244,1.16605,-0.811072,-0.336455,0.216328,-0.571413,1
2.6,3.90955,-2.72218,1.13683,-0.783752,-0.292174,0.273193,-0.751836,1
2.7,4.02203,-2.79896,1.11277,-0.751795,-0.240569,0.319572,-0.925515,1
2.8,4.13236,-2.87238,1.09384,-0.716557,-0.189275,0.352385,-1.07789,1
2.9,4.24102,-2.94217,1.07927,-0.679308,-0.145775,0.372491,-1.19777,1
3,4.34837,-3.00819,1.06771,-0.641013,-0.115564,0.382943,-1.27771,1
3.1,4.45463,-3.07035,1.05755,-0.602325,-0.101609,0.386879,-1.31396,1
3.2,4.55986,-3.12866,1.04708,-0.563719,-0.104652,0.386067,-1.30608,1
3.3,4.66395,-3.18313,1.03472,-0.525678,-0.123661,0.380405,-1.25649,1
3.4,4.76665,-3.23385,1.01911,-0.488849,-0.156071,0.368296,-1.16997,1
3.5,4.86757,-3.281,0.999321,-0.454087,-0.1979,0.347614,-1.05325,1
3.6,4.96628,-3.32482,0.974915,-0.422396,-0.24406,0.316914,-0.914545,1
3.7,5.06232,-3.36568,0.946006,-0.39475,-0.289089,0.276455,-0.763062,1
3.8,5.15528,-3.40401,0.913184,-0.371888,-0.328225,0.228623,-0.608402,1
3.9,5.24481,-3.44031,0.87734,-0.354133,-0.358435,0.177552,-0.459923,1
4,5.33254,-3.47573,0.87734,-0.354133,-0,0,-0.32615,0
4.1,5.41832,-3.51073,0.838177,-0.345995,-0.391636,0.0813732,-0.204863,1
4.2,5.50214,-3.54533,0.838177,-0.345995,-0,0,-0.102565,0
4.3,5.58596,-3.57993,0.838177,-0.345995,-0,0,-0.0169754,0
4.4,5.66778,-3.61467,0.798268,-0.348694,-0.399089,-0.0269882,0.0675218,1
4.5,5.74562,-3.64981,0.758639,-0.354129,-0.396291,-0.0543439,0.136281,1
4.6,5.81952,-3.68557,0.719251,-0.361101,-0.393876,-0.0697277,0.175214,1
4.7,5.88948,-3.72205,0.679956,-0.368576,-0.392955,-0.0747417,0.187959,1
4.8,5.9555,-3.75926,0.640571,-0.375566,-0.393844,-0.0699047,0.175664,1
4.9,6.01758,-3.79708,0.600927,-0.380887,-0.396446,-0.0532045,0.133407,1
5,6.07567,-3.83527,0.560975,-0.38284,-0.399523,-0.0195301,0.0488446,1
5.1,6.12978,-3.87337,0.521149,-0.379108,-0.398255,0.0373194,-0.0934345,1
5.2,6.17999,-3.91068,0.482975,-0.36716,-0.38174,0.119476,-0.303319,1
5.3,6.22661,-3.9463,0.449492,-0.345277,-0.334834,0.218829,-0.578862,1
5.4,6.27033,-3.97926,0.424807,-0.313802,-0.246849,0.314747,-0.905717,1
5.5,6.3122,-4.00873,0.41259,-0.275714,-0.122164,0.380889,-1.26043,1
5.6,6.35354,-4.0343,0.414363,-0.235753,0.0177221,0.399607,-1.61512,1
5.7,6.39571,-4.05602,0.428887,-0.198483,0.14524,0.3727,-1.94239,1
5.8,6.4398,-4.07427,0.453053,-0.166608,0.241666,0.318744,-2.21951,1
5.9,6.48662,-4.08963,0.483364,-0.140508,0.303111,0.261005,-2.4307,1
6,6.53496,-4.10368,0.483364,-0.140508,0,0,-2.56718,0
6.1,6.58507,-4.11681,0.518875,-0.122096,0.355104,0.184122,-2.66325,1
6.2,6.63878,-4.1282,0.555351,-0.10568,0.364762,0.164161,-2.7187,1
6.3,6.69612,-4.13791,0.591484,-0.0885207,0.361327,0.171589,-2.69824,1
6.4,6.75699,-4.14574,0.625882,-0.0681064,0.343985,0.204143,-2.60599,1
6.5,6.82112,-4.15127,0.656622,-0.0425122,0.307398,0.255942,-2.44728,1
6.6,6.888,-4.15394,0.681081,-0.0108614,0.244587,0.316508,-2.22871,1
6.7,6.95687,-4.15317,0.69621,0.0261669,0.151295,0.370283,-1.95869,1
6.8,7.02664,-4.14856,0.699299,0.0660475,0.0308859,0.398806,-1.64809,1
6.9,7.09606,-4.14002,0.689009,0.104701,-0.102899,0.386538,-1.31062,1
7,7.16382,-4.12791,0.666152,0.137527,-0.228572,0.328261,-0.96255,1
7.1,7.22881,-4.113,0.633632,0.160818,-0.3252,0.232906,-0.621511,1
7.2,7.29026,-4.09631,0.595474,0.172818,-0.381575,0.120002,-0.304699,1
7.3,7.34781,-4.07898,0.555489,0.173896,-0.399855,0.0107797,-0.0269526,1
7.4,7.4014,-4.06199,0.51629,0.165927,-0.391982,-0.079688,0.200562,1
7.5,7.45116,-4.04612,0.479008,0.151435,-0.372822,-0.144926,0.370751,1
7.6,7.49729,-4.0319,0.443532,0.132958,-0.354767,-0.184772,0.48017,1
7.7,7.53992,-4.01961,0.408983,0.112799,-0.345487,-0.20159,0.528196,1
7.8,7.57907,-4.00932,0.374195,0.0930553,-0.34788,-0.197433,0.516203,1
7.9,7.61469,-4.00088,0.338125,0.0757649,-0.3607,-0.172903,0.446996,1
8,7.64661,-3.99394,0.300214,0.0630084,-0.379114,-0.127565,0.324581,1
8.1,7.67465,-3.98795,0.260688,0.0568634,-0.395252,-0.0614506,0.154237,1
8.2,7.69872,-3.98214,0.220754,0.0591519,-0.399345,0.0228857,-0.0572454,1
8.3,7.71889,-3.97564,0.182556,0.0710229,-0.381979,0.11871,-0.301313,1
8.4,7.73546,-3.96746,0.148828,0.0925267,-0.337281,0.215038,-0.567583,1
8.5,7.74901,-3.95671,0.122252,0.122422,-0.265755,0.298955,-0.844122,1
8.6,7.76036,-3.94267,0.104758,0.158394,-0.174947,0.359713,-1.11813,1
8.7,7.77045,-3.92487,0.0970507,0.197644,-0.0770696,0.392505,-1.37691,1
8.8,7.78024,-3.9031,0.0985749,0.237615,0.0152426,0.399709,-1.60891,1
8.9,7.79056,-3.8774,0.107838,0.276528,0.0926263,0.389128,-1.80448,1
9,7.80209,-3.84789,0.122876,0.313593,0.150381,0.370656,-1.95622,1
9.1,7.81532,-3.81477,0.141633,0.348923,0.18757,0.353295,-2.05887,1
9.2,7.83051,-3.77816,0.162134,0.383269,0.205019,0.343464,-2.10894,1
9.3,7.84774,-3.73811,0.182475,0.417711,0.203407,0.34442,-2.10426,1
9.4,7.86689,-3.69456,0.200689,0.453324,0.182136,0.356127,-2.04355,1
9.5,7.88766,-3.64735,0.214612,0.490823,0.139231,0.374986,-1.92632,1
9.6,7.90948,-3.5963,0.221858,0.530161,0.072461,0.393382,-1.75295,1
9.7,7.93158,-3.54128,0.220034,0.570119,-0.0182383,0.399584,-1.52518,1
9.8,7.95294,-3.48238,0.207298,0.608037,-0.127366,0.379181,-1.24674,1
9.9,7.97247,-3.41998,0.183197,0.639962,-0.241002,0.319246,-0.924162,1
10,7.9891,-3.35491,0.149466,0.66146,-0.337316,0.214984,-0.567422,1
10.1,8.00208,-3.28838,0.110186,0.669014,-0.392804,0.0755342,-0.189976,1
10.2,8.01114,-3.22186,0.0709212,0.661378,-0.392644,-0.0763612,0.192082,1
10.3,8.01654,-3.15679,0.0370683,0.640071,-0.338529,-0.213069,0.561754,1
10.4,8.01901,-3.09435,0.0123075,0.608656,-0.247607,-0.314151,0.903304,1
10.5,8.01952,-3.03536,-0.00203475,0.571315,-0.143423,-0.373403,1.20407,1
10.6,8.01909,-2.98021,-0.00664234,0.531582,-0.0460758,-0.397337,1.45535,1
10.7,8.01859,-2.92905,-0.00339223,0.491714,0.0325011,-0.398677,1.65214,1
10.8,8.01869,-2.88183,0.00539301,0.452691,0.0878524,-0.390233,1.79223,1
10.9,8.01982,-2.83846,0.0173761,0.414528,0.119831,-0.381629,1.87505,1
11,8.02156,-2.79701,0.0173761,0.414528,0,-0,1.90059,0
11.1,8.0233,-2.75556,0.0173761,0.414528,0,-0,1.89538,0
11.2,8.02504,-2.71411,0.0173761,0.414528,0,-0,1.88596,0
11.3,8.02678,-2.67265,0.0173761,0.414528,0,-0,1.87225,0
11.4,8.02851,-2.6312,0.0173761,0.414528,0,-0,1.85421,0
11.5,8.03025,-2.58975,0.0173761,0.414528,0,-0,1.83182,0
11.6,8.03199,-2.5483,0.0173761,0.414528,0,-0,1.8051,0
11.7,8.03373,-2.50684,0.0173761,0.414528,0,-0,1.77413,0
11.8,8.03546,-2.46539,0.0173761,0.414528,0,-0,1.73897,0
11.9,8.0372,-2.42394,0.0173761,0.414528,0,-0,1.69975,0
12,8.03894,-2.38248,0.0173761,0.414528,0,-0,1.65662,0
12.1,8.04068,-2.34103,0.0173761,0.414528,0,-0,1.60972,0
12.2,8.04241,-2.29958,0.0173761,0.414528,-0,-0,1.55924,0
12.3,8.04415,-2.25813,0.0173761,0.414528,-0,-0,1.50539,0
12.4,8.04589,-2.21667,0.0173761,0.414528,-0,-0,1.44836,0
12.5,8.04763,-2.17522,0.0173761,0.414528,-0,-0,1.38838,0
12.6,8.04936,-2.13377,0.0173761,0.414528,-0,-0,1.32568,0
12.7,8.0511,-2.09231,0.0173761,0.414528,-0,-0,1.26049,0
12.8,8.0521,-2.05272,0.00262267,0.377348,-0.147534,-0.371798,1.19304,1
12.9,8.05145,-2.01676,-0.0157087,0.341796,-0.183314,-0.355522,1.09473,1
13,8.04869,-1.9842,-0.0393537,0.309532,-0.23645,-0.322632,0.938345,1
13.1,8.04326,-1.95457,-0.0692422,0.282949,-0.298885,-0.265834,0.726939,1
13.2,8.03455,-1.92718,-0.104994,0.26501,-0.357518,-0.17939,0.465059,1
13.3,8.02208,-1.90099,-0.144486,0.258656,-0.394922,-0.0635371,0.159518,1
13.4,8.00566,-1.87477,-0.18384,0.265816,-0.393541,0.071593,-0.179952,1
13.5,7.98556,-1.84716,-0.218137,0.2864,-0.342969,0.205845,-0.540556,1
13.6,7.96252,-1.81694,-0.242779,0.317908,-0.246422,0.315081,-0.907073,1
13.7,7.93763,-1.78325,-0.254885,0.356032,-0.121061,0.38124,-1.26332,1
13.8,7.91219,-1.74564,-0.253954,0.396021,0.00931018,0.399892,-1.59407,1
13.9,7.88742,-1.70414,-0.241525,0.434041,0.124295,0.380198,-1.88677,1
14,7.86433,-1.65904,-0.220223,0.467897,0.213018,0.33856,-2.1324,1
14.1,7.84368,-1.6108,-0.19282,0.497036,0.274029,0.29139,-2.3255,1
14.2,7.82595,-1.55984,-0.161674,0.522134,0.311462,0.250981,-2.46331,1
14.3,7.81144,-1.5065,-0.128589,0.544616,0.330847,0.224812,-2.54476,1
14.4,7.79858,-1.45204,-0.128589,0.544616,0,0,-2.56939,0
14.5,7.78572,-1.39758,-0.128589,0.544616,0,0,-2.56562,0
14.6,7.77286,-1.34312,-0.128589,0.544616,0,0,-2.56221,0
14.7,7.76001,-1.28865,-0.128589,0.544616,0,0,-2.55917,0
14.8,7.74715,-1.23419,-0.128589,0.544616,0,0,-2.5565,0
14.9,7.73429,-1.17973,-0.128589,0.544616,0,0,-2.55419,0
15,7.72143,-1.12527,-0.128589,0.544616,0,0,-2.55225,0
15.1,7.70857,-1.07081,-0.128589,0.544616,0,0,-2.55066,0
15.2,7.69571,-1.01635,-0.128589,0.544616,0,0,-2.54943,0
15.3,7.68285,-0.961884,-0.128589,0.544616,0,0,-2.54852,0
15.4,7.66999,-0.907423,-0.128589,0.544616,0,0,-2.54794,0
15.5,7.65713,-0.852961,-0.128589,0.544616,0,0,-2.54767,0
15.6,7.64427,-0.798499,-0.128589,0.544616,0,0,-2.54768,0
15.7,7.63142,-0.744038,-0.128589,0.544616,0,0,-2.54796,0
15.8,7.61856,-0.689576,-0.128589,0.544616,0,0,-2.54848,0
15.9,7.6057,-0.635115,-0.128589,0.544616,0,0,-2.54923,0
16,7.59284,-0.580653,-0.128589,0.544616,0,0,-2.55017,0
16.1,7.57998,-0.526192,-0.128589,0.544616,0,0,-2.55129,0
16.2,7.56712,-0.47173,-0.128589,0.544616,0,0,-2.55256,0
16.3,7.55426,-0.417268,-0.128589,0.544616,0,0,-2.55394,0
16.4,7.5414,-0.362807,-0.128589,0.544616,0,0,-2.55542,0
16.5,7.52854,-0.308345,-0.128589,0.544616,0,0,-2.55695,0
16.6,7.51569,-0.253884,-0.128589,0.544616,0,0,-2.55852,0
16.7,7.50283,-0.199422,-0.128589,0.544616,0,0,-2.5601,0
16.8,7.48997,-0.144961,-0.128589,0.544616,0,0,-2.56164,0
16.9,7.47711,-0.0904991,-0.128589,0.544616,0,0,-2.56313,0
17,7.46425,-0.0360375,-0.128589,0.544616,0,0,-2.56452,0
17.1,7.45139,0.018424,-0.128589,0.544616,0,0,-2.5658,0
17.2,7.43853,0.0728856,-0.128589,0.544616,0,0,-2.56692,0
17.3,7.42567,0.127347,-0.128589,0.544616,0,0,-2.56786,0
17.4,7.41281,0.181809,-0.128589,0.544616,0,0,-2.56858,0
17.5,7.39996,0.23627,-0.128589,0.544616,0,0,-2.56905,0
17.6,7.3871,0.290732,-0.128589,0.544616,0,0,-2.56925,0
17.7,7.37424,0.345193,-0.128589,0.544616,0,0,-2.56913,0
17.8,7.36138,0.399655,-0.128589,0.544616,0,0,-2.56867,0
17.9,7.34852,0.454117,-0.128589,0.544616,0,0,-2.56783,0
18,7.33566,0.508578,-0.128589,0.544616,0,0,-2.56658,0
18.1,7.3228,0.56304,-0.128589,0.544616,0,0,-2.56489,0
18.2,7.30994,0.617501,-0.128589,0.544616,0,0,-2.56271,0
18.3,7.29708,0.671963,-0.128589,0.544616,0,0,-2.56003,0
18.4,7.28422,0.726424,-0.128589,0.544616,0,0,-2.5568,0
18.5,7.27137,0.780886,-0.128589,0.544616,0,0,-2.55299,0
18.6,7.25851,0.835347,-0.128589,0.544616,0,0,-2.54856,0
18.7,7.24565,0.889809,-0.128589,0.544616,0,0,-2.54348,0
18.8,7.23279,0.944271,-0.128589,0.544616,0,0,-2.5377,0
18.9,7.21993,0.998732,-0.128589,0.544616,0,0,-2.53119,0
19,7.20707,1.05319,-0.128589,0.544616,0,0,-2.52391,0
19.1,7.19421,1.10766,-0.128589,0.544616,0,0,-2.51582,0
19.2,7.18135,1.16212,-0.128589,0.544616,0,0,-2.50686,0
19.3,7.16849,1.21658,-0.128589,0.544616,0,0,-2.497,0
19.4,7.15564,1.27104,-0.128589,0.544616,0,0,-2.48619,0
19.5,7.14278,1.3255,-0.128589,0.544616,0,0,-2.47437,0
19.6,7.12992,1.37996,-0.128589,0.544616,0,0,-2.4615,0
19.7,7.11706,1.43442,-0.128589,0.544616,0,0,-2.44751,0
19.8,7.1042,1.48889,-0.128589,0.544616,0,0,-2.43235,0
19.9,7.09134,1.54335,-0.128589,0.544616,0,0,-2.41595,0
20,7.07848,1.59781,-0.128589,0.544616,0,0,-2.39824,0
20.1,7.06562,1.65227,-0.128589,0.544616,0,0,-2.37915,0
20.2,7.05276,1.70673,-0.128589,0.544616,0,0,-2.3586,0
20.3,7.03991,1.76119,-0.128589,0.544616,0,0,-2.3365,0
20.4,7.02705,1.81566,-0.128589,0.544616,0,0,-2.31276,0
20.5,7.01419,1.87012,-0.128589,0.544616,0,0,-2.28729,0
20.6,7.00133,1.92458,-0.128589,0.544616,0,0,-2.25996,0
20.7,6.98847,1.97904,-0.128589,0.544616,0,0,-2.23066,0
20.8,6.97561,2.0335,-0.128589,0.544616,0,0,-2.19925,0
20.9,6.96275,2.08796,-0.128589,0.544616,0,0,-2.1656,0
21,6.94989,2.14242,-0.128589,0.544616,0,0,-2.12954,0
21.1,6.93703,2.19689,-0.128589,0.544616,0,0,-2.09089,0
21.2,6.92418,2.25135,-0.128589,0.544616,0,0,-2.04947,0
21.3,6.91132,2.30581,-0.128589,0.544616,0,0,-2.00504,0
21.4,6.89846,2.36027,-0.128589,0.544616,0,0,-1.95738,0
21.5,6.8856,2.41473,-0.128589,0.544616,0,0,-1.90621,0
21.6,6.87274,2.46919,-0.128589,0.544616,0,0,-1.85122,0
21.7,6.86032,2.52561,-0.11981,0.58364,0.0877893,0.390247,-1.79207,1
21.8,6.84854,2.58596,-0.115688,0.623427,0.0412259,0.39787,-1.67404,1
21.9,6.83671,2.65029,-0.120974,0.663076,-0.0528634,0.396491,-1.43825,1
22,6.82367,2.71836,-0.13982,0.698359,-0.18846,0.352821,-1.0802,1
22.1,6.80804,2.78933,-0.172787,0.721012,-0.329668,0.226536,-0.602059,1
22.2,6.78876,2.86147,-0.21278,0.721775,-0.399927,0.00763147,-0.0190798,1
22.3,6.76588,2.93246,-0.244967,0.698027,-0.321871,-0.237485,0.635666,1
22.4,6.74087,3.00032,-0.255072,0.659324,-0.101051,-0.387025,1.3154,1
22.5,6.71616,3.06442,-0.239274,0.622576,0.157977,-0.367482,1.9768,1
22.6,6.69395,3.12565,-0.204935,0.602061,0.343387,-0.205148,2.60307,1
22.7,6.67438,3.18763,-0.186485,0.637552,0.184509,0.354903,-58.5989,1
22.8,6.65519,3.25331,-0.197254,0.676074,-0.107698,0.385229,-57.8469,1
22.9,6.63353,3.32142,-0.235998,0.68602,-0.38744,0.0994513,-56.7999,1
23,6.60899,3.38825,-0.254732,0.650678,-0.187336,-0.353419,-55.4653,1
23.1,6.58519,3.45223,-0.221184,0.628893,0.335475,-0.217846,-53.983,1
23.2,6.56433,3.51667,-0.19604,0.660002,0.251448,0.311085,-52.5161,1
23.3,6.54333,3.5841,-0.224074,0.688533,-0.280347,0.285317,-51.0597,1
23.4,6.51945,3.6516,-0.253522,0.661462,-0.294477,-0.270709,-49.5221,1
23.5,6.49539,3.71623,-0.227551,0.63104,0.259707,-0.304224,-47.9881,1
23.6,6.47444,3.7802,-0.191567,0.648507,0.359847,0.174672,-46.672,1
23.7,6.45549,3.84704,-0.187341,0.688283,0.0422565,0.397762,-45.6589,1
23.8,6.43548,3.91741,-0.212905,0.719049,-0.255637,0.307652,-44.8598,1
23.9,6.41223,3.98969,-0.252179,0.726635,-0.392739,0.0758666,-44.1731,1
24,6.38517,4.06156,-0.288848,0.710655,-0.366694,-0.159799,-43.5713,1
24.1,6.35504,4.13106,-0.313901,0.679473,-0.250534,-0.311821,-43.0883,1
24.2,6.32297,4.19713,-0.327447,0.641837,-0.135455,-0.376367,-42.757,1
24.3,6.29002,4.25932,-0.331568,0.602049,-0.0412079,-0.397872,-42.5147,1
24.4,6.25721,4.31756,-0.324627,0.562656,0.0694095,-0.393932,-42.2371,1
24.5,6.22575,4.3721,-0.304498,0.52809,0.201288,-0.345663,-41.8842,1
24.6,6.19689,4.42369,-0.272723,0.503792,0.317744,-0.242979,-41.4935,1
24.7,6.17154,4.47353,-0.234221,0.492949,0.385023,-0.10843,-41.1152,1
24.8,6.15012,4.52293,-0.194278,0.49508,0.399432,0.0213087,-40.7874,1
24.9,6.1326,4.57304,-0.156156,0.507191,0.381223,0.121114,-40.5331,1
25,6.11876,4.62468,-0.120645,0.525603,0.355107,0.184116,-40.3624,1
25.1,6.10838,4.67831,-0.0868379,0.546982,0.338069,0.213797,-40.2768,1
25.2,6.10139,4.73409,-0.0531071,0.568482,0.337308,0.214996,-40.2732,1
25.3,6.09784,4.79188,-0.0178895,0.587449,0.352175,0.189665,-40.3467,1
25.4,6.09793,4.85131,0.0196937,0.601141,0.375833,0.136929,-40.4913,1
25.5,6.10188,4.91171,0.0593012,0.606731,0.396075,0.0558997,-40.7005,1
25.6,6.10979,4.97213,0.0989873,0.60173,0.39686,-0.0500193,-40.9661,1
25.7,6.1215,5.03146,0.135234,0.584812,0.362466,-0.169171,-41.2774,1
25.8,6.13645,5.08853,0.163679,0.55669,0.284451,-0.281225,-41.6204,1
25.9,6.15366,5.14238,0.180485,0.520392,0.168064,-0.36298,-41.9779,1
26,6.17187,5.19243,0.183726,0.480523,0.0324095,-0.398685,-42.3304,1
26.1,6.18975,5.23854,0.173952,0.441736,-0.0977421,-0.387874,-42.6584,1
26.2,6.20613,5.28099,0.153633,0.407281,-0.203193,-0.344547,-42.9443,1
26.3,6.22011,5.32028,0.125985,0.378374,-0.276473,-0.289072,-43.1746,1
26.4,6.23111,5.35692,0.0939659,0.3544,-0.320195,-0.23974,-43.3396,1
26.5,6.2405,5.39236,0.0939659,0.3544,-0,-0,-43.4332,0
26.6,6.2499,5.4278,0.0939659,0.3544,-0,-0,-43.4893,0
26.7,6.2593,5.46324,0.0939659,0.3544,-0,-0,-43.5445,0
26.8,6.26869,5.49868,0.0939659,0.3544,-0,-0,-43.5985,0
26.9,6.27809,5.53412,0.0939659,0.3544,-0,-0,-43.6513,0
27,6.28749,5.56956,0.0939659,0.3544,-0,-0,-43.7028,0
27.1,6.29688,5.605,0.0939659,0.3544,-0,-0,-43.7529,0
27.2,6.30628,5.64044,0.0939659,0.3544,-0,-0,-43.8013,0
27.3,6.31568,5.67588,0.0939659,0.3544,-0,-0,-43.848,0
27.4,6.32507,5.71132,0.0939659,0.3544,-0,-0,-43.8929,0
27.5,6.33447,5.74676,0.0939659,0.3544,-0,-0,-43.9358,0
27.6,6.34387,5.7822,0.0939659,0.3544,-0,-0,-43.9767,0
27.7,6.35326,5.81764,0.0939659,0.3544,-0,0,-44.0154,0
27.8,6.36266,5.85308,0.0939659,0.3544,-0,0,-44.0518,0
27.9,6.37206,5.88852,0.0939659,0.3544,-0,0,-44.0859,0
28,6.38145,5.92396,0.0939659,0.3544,-0,0,-44.1175,0
28.1,6.39085,5.9594,0.0939659,0.3544,-0,0,-44.1466,0
28.2,6.40025,5.99484,0.0939659,0.3544,-0,0,-44.1731,0
28.3,6.40964,6.03028,0.0939659,0.3544,-0,0,-44.1969,0
28.4,6.41904,6.06572,0.0939659,0.3544,-0,0,-44.218,0
28.5,6.42844,6.10116,0.0939659,0.3544,-0,0,-44.2363,0
28.6,6.43783,6.1366,0.0939659,0.3544,-0,0,-44.2518,0
28.7,6.44723,6.17204,0.0939659,0.3544,-0,0,-44.2645,0
28.8,6.45663,6.20748,0.0939659,0.3544,-0,0,-44.2743,0
28.9,6.46602,6.24292,0.0939659,0.3544,-0,0,-44.2813,0
29,6.47542,6.27836,0.0939659,0.3544,-0,0,-44.2854,0
29.1,6.48482,6.3138,0.0939659,0.3544,-0,0,-44.2866,0
29.2,6.49421,6.34924,0.0939659,0.3544,-0,0,-44.2849,0
29.3,6.50361,6.38468,0.0939659,0.3544,-0,0,-44.2804,0
29.4,6.51301,6.42012,0.0939659,0.3544,-0,0,-44.2731,0
29.5,6.5224,6.45556,0.0939659,0.3544,-0,0,-44.2631,0
29.6,6.5318,6.491,0.0939659,0.3544,-0,0,-44.2504,0
29.7,6.5412,6.52644,0.0939659,0.3544,-0,0,-44.2349,0
29.8,6.55059,6.56188,0.0939659,0.3544,-0,0,-44.2169,0
29.9,6.55999,6.59732,0.0939659,0.3544,-0,0,-44.1963,0
30,6.56939,6.63276,0.0939659,0.3544,-0,0,-44.1733,0
30.1,6.57878,6.6682,0.0939659,0.3544,-0,0,-44.1478,0
30.2,6.58818,6.70364,0.0939659,0.3544,-0,0,-44.1201,0
30.3,6.59757,6.73908,0.0939659,0.3544,-0,0,-44.09,0
30.4,6.60697,6.77452,0.0939659,0.3544,-0,0,-44.0579,0
30.5,6.61637,6.80996,0.0939659,0.3544,-0,0,-44.0236,0
30.6,6.62576,6.8454,0.0939659,0.3544,-0,0,-43.9874,0
30.7,6.63516,6.88084,0.0939659,0.3544,-0,-0,-43.9493,0
30.8,6.64456,6.91628,0.0939659,0.3544,-0,-0,-43.9094,0
30.9,6.65395,6.95172,0.0939659,0.3544,-0,-0,-43.8677,0
31,6.66335,6.98716,0.0939659,0.3544,-0,-0,-43.8245,0
31.1,6.67275,7.0226,0.0939659,0.3544,-0,-0,-43.7797,0
31.2,6.68214,7.05804,0.0939659,0.3544,-0,-0,-43.7335,0
31.3,6.69154,7.09348,0.0939659,0.3544,-0,-0,-43.686,0
31.4,6.69906,7.12824,0.0563235,0.340871,-0.376424,-0.135295,-43.6373,1
31.5,6.70287,7.1615,0.0199188,0.324297,-0.364047,-0.165741,-43.5551,1
31.6,6.70318,7.19284,-0.0136832,0.302596,-0.33602,-0.217003,-43.4089,1
31.7,6.70039,7.2217,-0.0421029,0.274448,-0.284197,-0.281482,-43.2017,1
